Id,Sales
1,5842.75435729
2,5842.87693464
3,5843.12208933
4,5843.18337801
5,5843.24466668
6,5843.30595535
7,5843.36724403
8,5843.4285327
9,5843.48982137
10,5843.55111005
11,5843.61239872
12,5843.67368739
13,5843.85755341
14,5843.91884208
15,5843.98013076
16,5844.04141943
17,5844.1027081
18,5844.16399678
19,5844.22528545
20,5844.3478628
21,5844.47044014
22,5844.53172882
23,5844.59301749
24,5844.65430616
25,5844.71559484
26,5844.83817218
27,5844.89946086
28,5845.0220382
29,5845.08332687
30,5845.14461555
31,5845.20590422
32,5845.26719289
33,5845.32848157
34,5845.45105891
35,5845.51234759
36,5845.57363626
37,5845.63492493
38,5845.69621361
39,5845.75750228
40,5845.81879095
41,5845.88007963
42,5845.9413683
43,5846.12523432
44,5846.24781166
45,5846.43167768
46,5846.49296636
47,5846.55425503
48,5846.6155437
49,5846.73812105
50,5846.79940972
51,5846.8606984
52,5846.92198707
53,5846.98327574
54,5847.04456442
55,5847.10585309
56,5847.16714176
57,5847.22843043
58,5847.28971911
59,5847.35100778
60,5847.41229645
61,5847.5348738
62,5847.59616247
63,5847.65745115
64,5847.71873982
65,5847.78002849
66,5847.84131717
67,5847.96389451
68,5848.14776053
69,5848.20904921
70,5848.27033788
71,5848.33162655
72,5848.39291522
73,5848.4542039
74,5848.69935859
75,5848.76064726
76,5848.82193594
77,5848.88322461
78,5848.94451328
79,5849.1283793
80,5849.25095665
81,5849.31224532
82,5849.37353399
83,5849.43482267
84,5849.49611134
85,5849.55740001
86,5849.61868869
87,5849.74126603
88,5849.86384338
89,5849.92513205
90,5849.98642073
91,5850.0477094
92,5850.17028675
93,5850.29286409
94,5850.41544144
95,5850.47673011
96,5850.53801878
97,5850.59930746
98,5850.66059613
99,5850.7218848
100,5850.78317348
101,5850.9670395
102,5851.02832817
103,5851.08961684
104,5851.21219419
105,5851.27348286
106,5851.33477154
107,5851.39606021
108,5851.45734888
109,5851.51863756
110,5851.57992623
111,5851.6412149
112,5851.70250357
113,5851.82508092
114,5851.88636959
115,5852.00894694
116,5852.07023561
117,5852.13152429
118,5852.19281296
119,5852.31539031
120,5852.37667898
121,5852.43796765
122,5852.49925633
123,5852.560545
124,5852.62183367
125,5852.74441102
126,5852.80569969
127,5852.86698836
128,5852.98956571
129,5853.05085438
130,5853.11214306
131,5853.17343173
132,5853.2347204
133,5853.35729775
134,5853.41858642
135,5853.4798751
136,5853.66374112
137,5853.72502979
138,5853.78631846
139,5853.84760713
140,5853.90889581
141,5853.97018448
142,5854.09276183
143,5854.1540505
144,5854.21533917
145,5854.27662785
146,5854.33791652
147,5854.39920519
148,5854.46049387
149,5854.52178254
150,5854.58307121
151,5854.64435989
152,5854.76693723
153,5854.88951458
154,5854.95080325
155,5855.01209192
156,5855.0733806
157,5855.19595794
158,5855.31853529
159,5855.37982396
160,5855.50240131
161,5855.56368998
162,5855.68626733
163,5855.747556
164,5855.80884468
165,5855.87013335
166,5855.93142202
167,5855.99271069
168,5856.05399937
169,5856.11528804
170,5856.17657671
171,5856.23786539
172,5856.42173141
173,5856.54430875
174,5856.60559743
175,5856.6668861
176,5856.72817477
177,5856.78946345
178,5856.85075212
179,5856.97332947
180,5857.03461814
181,5857.09590681
182,5857.27977283
183,5857.3410615
184,5857.46363885
185,5857.52492752
186,5857.5862162
187,5857.64750487
188,5857.70879354
189,5857.77008222
190,5857.83137089
191,5857.89265956
192,5857.95394824
193,5858.01523691
194,5858.07652558
195,5858.13781426
196,5858.19910293
197,5858.2603916
198,5858.32168027
199,5858.38296895
200,5858.50554629
201,5858.56683497
202,5858.75070099
203,5858.81198966
204,5858.93456701
205,5859.05714435
206,5859.11843303
207,5859.1797217
208,5859.36358772
209,5859.42487639
210,5859.48616506
211,5859.54745374
212,5859.67003108
213,5859.73131976
214,5859.79260843
215,5859.8538971
216,5859.91518578
217,5860.03776312
218,5860.0990518
219,5860.16034047
220,5860.28291782
221,5860.34420649
222,5860.40549516
223,5860.46678383
224,5860.71193853
225,5860.7732272
226,5860.83451587
227,5860.89580455
228,5860.95709322
229,5861.01838189
230,5861.07967057
231,5861.14095924
232,5861.20224791
233,5861.26353659
234,5861.32482526
235,5861.38611393
236,5861.44740261
237,5861.56997995
238,5861.63126862
239,5861.6925573
240,5861.75384597
241,5861.81513464
242,5861.93771199
243,5861.99900066
244,5862.06028934
245,5862.12157801
246,5862.24415536
247,5862.30544403
248,5862.48931005
249,5862.61188739
250,5862.67317607
251,5862.79575341
252,5862.85704209
253,5862.91833076
254,5862.97961943
255,5863.10219678
256,5863.16348545
257,5863.22477413
258,5863.2860628
259,5863.34735147
260,5863.40864015
261,5863.46992882
262,5863.53121749
263,5863.59250617
264,5863.65379484
265,5863.71508351
266,5863.77637218
267,5863.83766086
268,5863.89894953
269,5863.9602382
270,5864.02152688
271,5864.14410422
272,5864.2053929
273,5864.26668157
274,5864.32797024
275,5864.38925892
276,5864.45054759
277,5864.51183626
278,5864.63441361
279,5864.69570228
280,5864.8795683
281,5865.00214565
282,5865.06343432
283,5865.18601167
284,5865.24730034
285,5865.30858901
286,5865.36987769
287,5865.43116636
288,5865.49245503
289,5865.55374371
290,5865.7988984
291,5865.86018707
292,5865.92147574
293,5865.98276442
294,5866.16663044
295,5866.28920778
296,5866.35049646
297,5866.41178513
298,5866.4730738
299,5866.53436248
300,5866.65693982
301,5866.7182285
302,5866.77951717
303,5866.84080584
304,5866.90209452
305,5867.02467186
306,5867.08596053
307,5867.14724921
308,5867.3924039
309,5867.45369257
310,5867.51498125
311,5867.57626992
312,5867.63755859
313,5867.69884727
314,5867.76013594
315,5867.82142461
316,5867.88271329
317,5867.94400196
318,5868.00529063
319,5868.06657931
320,5868.12786798
321,5868.18915665
322,5868.25044532
323,5868.311734
324,5868.43431134
325,5868.49560002
326,5868.55688869
327,5868.67946604
328,5868.74075471
329,5868.80204338
330,5868.86333206
331,5868.92462073
332,5868.9859094
333,5869.04719808
334,5869.10848675
335,5869.16977542
336,5869.23106409
337,5869.29235277
338,5869.35364144
339,5869.66008481
340,5869.72137348
341,5869.78266215
342,5869.96652817
343,5870.02781685
344,5870.08910552
345,5870.15039419
346,5870.21168287
347,5870.27297154
348,5870.33426021
349,5870.39554888
350,5870.45683756
351,5870.5794149
352,5870.64070358
353,5870.70199225
354,5870.76328092
355,5870.8245696
356,5870.94714694
357,5871.06972429
358,5871.19230164
359,5871.25359031
360,5871.31487898
361,5871.37616766
362,5871.498745
363,5871.56003367
364,5871.62132235
365,5871.68261102
366,5871.80518837
367,5871.92776571
368,5872.17292041
369,5872.35678643
370,5872.4180751
371,5872.47936377
372,5872.54065244
373,5872.60194112
374,5872.72451846
375,5872.78580714
376,5872.84709581
377,5872.90838448
378,5873.03096183
379,5873.15353918
380,5873.21482785
381,5873.27611652
382,5873.3374052
383,5873.39869387
384,5873.45998254
385,5873.58255989
386,5873.64384856
387,5873.70513723
388,5873.76642591
389,5873.82771458
390,5873.88900325
391,5873.95029193
392,5874.0115806
393,5874.07286927
394,5874.19544662
395,5874.25673529
396,5874.31802397
397,5874.37931264
398,5874.44060131
399,5874.50188999
400,5874.56317866
401,5874.62446733
402,5874.685756
403,5874.80833335
404,5874.99219937
405,5875.05348804
406,5875.11477672
407,5875.17606539
408,5875.23735406
409,5875.29864274
410,5875.35993141
411,5875.42122008
412,5875.48250876
413,5875.54379743
414,5875.6050861
415,5875.66637478
416,5875.72766345
417,5875.78895212
418,5875.85024079
419,5875.91152947
420,5875.97281814
421,5876.09539549
422,5876.21797283
423,5876.27926151
424,5876.34055018
425,5876.40183885
426,5876.46312753
427,5876.5244162
428,5876.58570487
429,5876.64699355
430,5876.70828222
431,5876.83085957
432,5876.89214824
433,5877.07601426
434,5877.13730293
435,5877.1985916
436,5877.25988028
437,5877.32116895
438,5877.38245762
439,5877.4437463
440,5877.50503497
441,5877.62761232
442,5877.68890099
443,5877.75018966
444,5877.81147834
445,5877.87276701
446,5877.93405568
447,5878.05663303
448,5878.1179217
449,5878.17921037
450,5878.24049905
451,5878.30178772
452,5878.36307639
453,5878.48565374
454,5878.54694241
455,5878.60823109
456,5878.66951976
457,5878.73080843
458,5878.79209711
459,5878.85338578
460,5878.91467445
461,5878.97596313
462,5879.0372518
463,5879.28240649
464,5879.34369516
465,5879.46627251
466,5879.52756118
467,5879.58884986
468,5879.65013853
469,5879.7114272
470,5879.77271588
471,5880.07915924
472,5880.14044792
473,5880.20173659
474,5880.38560261
475,5880.44689128
476,5880.56946863
477,5880.6307573
478,5880.69204597
479,5880.75333465
480,5880.81462332
481,5880.87591199
482,5880.93720067
483,5880.99848934
484,5881.12106669
485,5881.18235536
486,5881.24364403
487,5881.36622138
488,5881.42751005
489,5881.48879872
490,5881.67266474
491,5881.73395342
492,5881.79524209
493,5881.85653076
494,5881.91781944
495,5881.97910811
496,5882.04039678
497,5882.10168546
498,5882.16297413
499,5882.2242628
500,5882.28555148
501,5882.34684015
502,5882.53070617
503,5882.59199484
504,5882.71457219
505,5882.83714953
506,5882.89843821
507,5882.95972688
508,5883.02101555
509,5883.08230423
510,5883.1435929
511,5883.20488157
512,5883.26617025
513,5883.32745892
514,5883.45003627
515,5883.51132494
516,5883.57261361
517,5883.69519096
518,5883.75647963
519,5883.8177683
520,5883.94034565
521,5884.00163432
522,5884.062923
523,5884.12421167
524,5884.18550034
525,5884.24678902
526,5884.36936636
527,5884.43065504
528,5884.61452105
529,5884.67580973
530,5884.79838707
531,5884.92096442
532,5884.98225309
533,5885.04354177
534,5885.10483044
535,5885.16611911
536,5885.22740779
537,5885.28869646
538,5885.34998513
539,5885.41127381
540,5885.53385115
541,5885.59513983
542,5885.6564285
543,5885.71771717
544,5733.86004459
545,5885.90158319
546,5885.96287186
547,5886.02416054
548,5886.20802656
549,5886.26931523
550,5886.3306039
551,5886.39189258
552,5886.45318125
553,5886.5757586
554,5886.63704727
555,5886.69833594
556,5886.75962462
557,5886.82091329
558,5886.88220196
559,5886.94349063
560,5887.00477931
561,5887.06606798
562,5887.12735665
563,5887.249934
564,5887.31122267
565,5887.37251135
566,5887.49508869
567,5887.55637737
568,5887.61766604
569,5887.67895471
570,5887.80153206
571,5887.86282073
572,5887.9241094
573,5887.98539808
574,5888.04668675
575,5888.10797542
576,5888.1692641
577,5888.29184144
578,5888.41441879
579,5888.53699614
580,5888.59828481
581,5888.65957348
582,5888.72086216
583,5888.78215083
584,5888.8434395
585,5889.02730552
586,5889.08859419
587,5889.14988287
588,5889.21117154
589,5889.39503756
590,5889.45632623
591,5889.51761491
592,5889.57890358
593,5889.64019225
594,5889.70148093
595,5889.7627696
596,5889.82405827
597,5889.88534695
598,5889.94663562
599,5890.00792429
600,5890.06921297
601,5890.13050164
602,5890.19179031
603,5890.25307898
604,5890.31436766
605,5890.37565633
606,5890.62081102
607,5890.74338837
608,5890.80467704
609,5891.04983174
610,5891.11112041
611,5891.17240908
612,5891.23369775
613,5891.29498643
614,5891.41756377
615,5891.47885245
616,5891.54014112
617,5891.66271847
618,5891.72400714
619,5891.78529581
620,5891.84658449
621,5891.90787316
622,5891.96916183
623,5892.03045051
624,5892.09173918
625,5892.15302785
626,5892.2756052
627,5892.33689387
628,5892.39818254
629,5892.52075989
630,5892.64333724
631,5892.70462591
632,5892.82720326
633,5892.88849193
634,5892.9497806
635,5893.07235795
636,5893.13364662
637,5893.1949353
638,5893.25622397
639,5893.31751264
640,5893.50137866
641,5893.62395601
642,5893.68524468
643,5893.74653335
644,5893.8691107
645,5893.99168805
646,5894.17555407
647,5894.29813141
648,5894.42070876
649,5894.48199743
650,5894.5432861
651,5894.60457478
652,5894.66586345
653,5894.72715212
654,5894.7884408
655,5894.84972947
656,5894.91101814
657,5894.97230682
658,5895.09488416
659,5895.15617284
660,5895.21746151
661,5895.27875018
662,5895.34003886
663,5895.40132753
664,5895.4626162
665,5895.52390488
666,5895.58519355
667,5895.64648222
668,5895.70777089
669,5895.76905957
670,5895.83034824
671,5895.89163691
672,5896.07550293
673,5896.13679161
674,5896.25936895
675,5896.32065763
676,5896.44323497
677,5744.64685106
678,5896.62710099
679,5896.68838967
680,5896.74967834
681,5896.81096701
682,5896.87225568
683,5896.93354436
684,5896.99483303
685,5897.0561217
686,5897.11741038
687,5897.23998772
688,5897.3012764
689,5897.42385374
690,5897.48514242
691,5897.54643109
692,5897.60771976
693,5897.66900844
694,5897.85287445
695,5897.91416313
696,5897.9754518
697,5898.03674047
698,5898.09802915
699,5898.15931782
700,5898.22060649
701,5898.28189517
702,5898.34318384
703,5898.40447251
704,5898.52704986
705,5898.58833853
706,5898.64962721
707,5898.71091588
708,5898.77220455
709,5898.83349323
710,5898.8947819
711,5899.01735924
712,5899.07864792
713,5899.20122526
714,5899.32380261
715,5899.38509128
716,5899.44637996
717,5899.50766863
718,5899.5689573
719,5899.63024598
720,5899.69153465
721,5899.75282332
722,5899.814112
723,5899.93668934
724,5899.99797802
725,5900.05926669
726,5900.12055536
727,5900.18184403
728,5900.24313271
729,5900.36571005
730,5900.42699873
731,5900.4882874
732,5900.54957607
733,5900.61086475
734,5900.67215342
735,5900.73344209
736,5900.79473077
737,5900.91730811
738,5900.97859679
739,5901.03988546
740,5901.1624628
741,5901.22375148
742,5901.28504015
743,5901.53019484
744,5901.59148352
745,5901.65277219
746,5901.77534954
747,5901.83663821
748,5901.89792688
749,5901.95921556
750,5902.0817929
751,5902.14308158
752,5902.32694759
753,5902.38823627
754,5902.44952494
755,5902.51081361
756,5902.57210229
757,5902.75596831
758,5902.93983433
759,5903.001123
760,5903.06241167
761,5903.12370035
762,5903.24627769
763,5903.30756637
764,5903.43014371
765,5903.49143238
766,5903.61400973
767,5903.79787575
768,5903.85916442
769,5903.98174177
770,5904.16560779
771,5904.22689646
772,5904.28818514
773,5904.41076248
774,5904.47205115
775,5904.53333983
776,5904.5946285
777,5904.65591717
778,5904.71720585
779,5904.77849452
780,5904.83978319
781,5904.90107187
782,5904.96236054
783,5905.14622656
784,5905.20751523
785,5905.33009258
786,5905.45266993
787,5905.5139586
788,5905.57524727
789,5905.63653594
790,5905.69782462
791,5905.88169064
792,5906.188134
793,5906.24942268
794,5906.31071135
795,5906.37200002
796,5906.4332887
797,5906.49457737
798,5906.55586604
799,5906.67844339
800,5906.73973206
801,5906.86230941
802,5906.92359808
803,5906.98488675
804,5907.04617543
805,5907.1074641
806,5907.16875277
807,5907.23004145
808,5907.29133012
809,5907.41390747
810,5907.47519614
811,5907.53648481
812,5907.59777349
813,5907.65906216
814,5907.72035083
815,5907.7816395
816,5907.84292818
817,5907.90421685
818,5907.96550552
819,5908.0267942
820,5908.08808287
821,5908.14937154
822,5908.27194889
823,5908.33323756
824,5908.39452624
825,5908.45581491
826,5908.63968093
827,5908.7009696
828,5908.76225828
829,5908.82354695
830,5908.88483562
831,5909.06870164
832,5909.12999031
833,5909.25256766
834,5909.31385633
835,5909.37514501
836,5909.43643368
837,5909.55901103
838,5909.6202997
839,5909.74287705
840,5909.86545439
841,5758.00778181
842,5910.04932041
843,5910.11060908
844,5910.17189776
845,5910.23318643
846,5910.2944751
847,5910.35576378
848,5910.41705245
849,5910.47834112
850,5910.5396298
851,5910.66220714
852,5910.78478449
853,5910.84607316
854,5910.90736184
855,5910.96865051
856,5911.02993918
857,6213.9854244
858,6214.10800175
859,6214.35315644
860,6214.41444511
861,6214.47573378
862,6214.53702246
863,6214.59831113
864,6214.6595998
865,6214.72088848
866,6214.78217715
867,6214.84346582
868,6214.9047545
869,6215.08862052
870,6215.14990919
871,6215.21119786
872,6215.27248653
873,6215.33377521
874,6215.39506388
875,6215.45635255
876,6215.5789299
877,6215.70150725
878,6215.76279592
879,6215.82408459
880,6215.88537327
881,6215.94666194
882,6216.06923929
883,6216.13052796
884,6216.25310531
885,6216.31439398
886,6216.37568265
887,6216.43697132
888,6216.49826
889,6216.55954867
890,6216.68212602
891,6216.74341469
892,6216.80470336
893,6216.86599204
894,6216.92728071
895,6216.98856938
896,6217.04985806
897,6217.11114673
898,6217.1724354
899,6217.35630142
900,6217.47887877
901,6217.66274479
902,6217.72403346
903,6217.78532213
904,6217.84661081
905,6217.96918815
906,6218.03047683
907,6218.0917655
908,6218.15305417
909,6218.21434285
910,6218.27563152
911,6218.33692019
912,6218.39820887
913,6218.45949754
914,6218.52078621
915,6218.58207488
916,6218.64336356
917,6218.7659409
918,6218.82722958
919,6218.88851825
920,6218.94980692
921,6219.0110956
922,6219.07238427
923,6219.19496162
924,6219.37882764
925,6219.44011631
926,6219.50140498
927,6219.56269366
928,6219.62398233
929,6219.685271
930,6219.93042569
931,6219.99171437
932,6220.05300304
933,6220.11429171
934,6220.17558039
935,6220.35944641
936,6220.48202375
937,6220.54331243
938,6220.6046011
939,6220.66588977
940,6220.72717845
941,6220.78846712
942,6220.84975579
943,6220.97233314
944,6221.09491048
945,6221.15619916
946,6221.21748783
947,6221.2787765
948,6221.40135385
949,6221.5239312
950,6221.64650854
951,6221.70779722
952,6221.76908589
953,6221.83037456
954,6221.89166323
955,6221.95295191
956,6222.01424058
957,6222.1981066
958,6222.25939527
959,6222.32068395
960,6222.44326129
961,6222.50454997
962,6222.56583864
963,6222.62712731
964,6222.68841599
965,6222.74970466
966,6222.81099333
967,6222.87228201
968,6222.93357068
969,6223.05614802
970,6223.1174367
971,6223.24001404
972,6223.30130272
973,6223.36259139
974,6223.42388006
975,6223.54645741
976,6223.60774608
977,6223.66903476
978,6223.73032343
979,6223.7916121
980,6223.85290078
981,6223.97547812
982,6224.0367668
983,6224.09805547
984,6224.22063281
985,6224.28192149
986,6224.34321016
987,6224.40449883
988,6224.46578751
989,6224.58836485
990,6224.64965353
991,6224.7109422
992,6224.89480822
993,6224.95609689
994,6225.01738557
995,6225.07867424
996,6225.13996291
997,6225.20125158
998,6225.32382893
999,6225.3851176
1000,6225.44640628
1001,6225.50769495
1002,6225.56898362
1003,6225.6302723
1004,6225.69156097
1005,6225.75284964
1006,6225.81413832
1007,6225.87542699
1008,6225.99800434
1009,6226.12058168
1010,6226.18187036
1011,6226.24315903
1012,6226.3044477
1013,6226.42702505
1014,6226.54960239
1015,6226.61089107
1016,6226.73346841
1017,6226.79475709
1018,6226.91733443
1019,6226.97862311
1020,6227.03991178
1021,6227.10120045
1022,6227.16248913
1023,6227.2237778
1024,6227.28506647
1025,6227.34635515
1026,6227.40764382
1027,6227.46893249
1028,6227.65279851
1029,6227.77537586
1030,6227.83666453
1031,6227.8979532
1032,6227.95924188
1033,6228.02053055
1034,6228.08181922
1035,6228.20439657
1036,6228.26568524
1037,6228.32697392
1038,6228.51083993
1039,6228.57212861
1040,6228.69470595
1041,6228.75599463
1042,6228.8172833
1043,6228.87857197
1044,6228.93986065
1045,6229.00114932
1046,6229.06243799
1047,6229.12372667
1048,6229.18501534
1049,6229.24630401
1050,6229.30759269
1051,6229.36888136
1052,6229.43017003
1053,6229.49145871
1054,6229.55274738
1055,6229.61403605
1056,6229.7366134
1057,6229.79790207
1058,6229.98176809
1059,6230.04305676
1060,6230.16563411
1061,6230.28821146
1062,6230.34950013
1063,6230.4107888
1064,6230.59465482
1065,6230.6559435
1066,6230.71723217
1067,6230.77852084
1068,6230.90109819
1069,6230.96238686
1070,6231.02367553
1071,6231.08496421
1072,6231.14625288
1073,6231.26883023
1074,6231.3301189
1075,6231.39140757
1076,6231.51398492
1077,6231.57527359
1078,6231.63656227
1079,6231.69785094
1080,6231.94300563
1081,6232.0042943
1082,6232.06558298
1083,6232.12687165
1084,6232.18816032
1085,6232.249449
1086,6232.31073767
1087,6232.37202634
1088,6232.43331502
1089,6232.49460369
1090,6232.55589236
1091,6232.61718104
1092,6232.67846971
1093,6232.80104706
1094,6232.86233573
1095,6232.9236244
1096,6232.98491307
1097,6233.04620175
1098,6233.16877909
1099,6233.23006777
1100,6233.29135644
1101,6233.35264511
1102,6233.47522246
1103,6233.53651113
1104,6233.72037715
1105,6233.8429545
1106,6233.90424317
1107,6234.02682052
1108,6234.08810919
1109,6234.14939786
1110,6234.21068654
1111,6234.33326388
1112,6234.39455256
1113,6234.45584123
1114,6234.5171299
1115,6234.57841858
1116,6234.63970725
1117,6234.70099592
